#"+ TIC Scan cebula1_15mL_split2.d "
#Point,X(Minutes),Y(Counts)
0,6.588,0.840698433651399
1,6.589,0.828782359220935
2,6.591,0.827973347095529
3,6.592,0.823001293408136
4,6.593,0.812484135777853
5,6.594,0.764449040831853
6,6.595,0.756948824252565
7,6.597,0.718942108777748
8,6.598,0.667451857879492
9,6.599,0.613366026412223
10,6.600,0.606169189379963
11,6.601,0.554291286838283
12,6.602,0.495604198907766
13,6.604,0.442580195855094
14,6.605,0.40952867964839
15,6.606,0.376713125311596
16,6.607,0.320571054692254
17,6.608,0.293587129426097
18,6.609,0.223742415932685
19,6.611,0.189106584313727
20,6.612,0.166504808060188
21,6.613,0.145689600250254
22,6.614,0.127351992074378
23,6.615,0.105710917719759
24,6.617,0.0834293754325265
25,6.618,0.06989527675125
26,6.619,0.0648726598060191
27,6.620,0.054692590561323
28,6.621,0.0419169407476148
29,6.622,0.0401135178847299
30,6.624,0.0407539858173433
31,6.625,0.0554678938481707
32,6.626,0.0514228332211391
33,6.627,0.0361864381926534
34,6.628,0.0515745229946528
35,6.630,0.0431978766128415
36,6.631,0.0519116113802387
37,6.632,0.0553499129132156
38,6.633,0.0607938903404289
39,6.634,0.0512711434476254
40,6.635,0.057069063679704
41,6.637,0.0678727464377342
42,6.638,0.0722886042889104
43,6.639,0.084187824300095
44,6.640,0.0728616545444065
45,6.641,0.0782045054559441
46,6.642,0.103570406471288
47,6.644,0.0910981362046073
48,6.645,0.102188344090386
49,6.646,0.109671706250394
50,6.647,0.132290336923212
51,6.648,0.156291029976933
52,6.650,0.14796494685296
53,6.651,0.145874998862327
54,6.652,0.180814210028312
55,6.653,0.177712996880921
56,6.654,0.214556757425467
57,6.655,0.201848525288876
58,6.657,0.20176425319248
59,6.658,0.210933057280418
60,6.659,0.246698134991089
61,6.660,0.238321488609278
62,6.661,0.238928247703333
63,6.662,0.250422961651814
64,6.664,0.228731324039357
65,6.665,0.251703897517041
66,6.666,0.225916636019714
67,6.667,0.23225389766873
68,6.668,0.255496141854883
69,6.670,0.224500864800253
70,6.671,0.215062390003846
71,6.672,0.226691939306562
72,6.673,0.201427164806894
73,6.674,0.204511523535005
74,6.675,0.203129461154103
75,6.677,0.185314339975885
76,6.678,0.181319842606691
77,6.679,0.164431714488834
78,6.680,0.157925908647025
79,6.681,0.153442633118732
80,6.683,0.159543932897838
81,6.684,0.127234011139423
82,6.685,0.126492416691134
83,6.686,0.111761654241027
84,6.687,0.112536957527875
85,6.688,0.0941993493519981
86,6.690,0.103486134374892
87,6.691,0.106991853584986
88,6.692,0.0892104412453258
89,6.693,0.0733167238649476
90,6.694,0.0925981795204648
91,6.695,0.0722380410310725
92,6.697,0.0505295489993363
93,6.698,0.0711087949393595
94,6.699,0.0684289422739511
95,6.700,0.0563106148121356
96,6.701,0.0596140809908781
97,6.703,0.0559735264265496
98,6.704,0.0320908143077839
99,6.705,0.0395067587906752
100,6.706,0.0399955369497748
101,6.707,0.0380404243133762
102,6.708,0.0397090118220268
103,6.710,0.0390516894701341
104,6.711,0.0486249996207756
105,6.712,0.0364561089011222
106,6.713,0.0372145577686906
107,6.714,0.040400043012478
108,6.715,0.0346863948767959
109,6.717,0.0536307621467272
110,6.718,0.0530240030526724
111,6.719,0.0631535090395307
112,6.720,0.0435012561598689
113,6.721,0.0632377811359272
114,6.723,0.074075172732516
115,6.724,0.0613332317573665
116,6.725,0.0875418537366753
117,6.726,0.0843395140736087
118,6.727,0.0847608745555911
119,6.728,0.10279510318444
120,6.730,0.0971151638873168
121,6.731,0.113885311070219
122,6.732,0.134363430494566
123,6.733,0.146818846341967
124,6.734,0.10881213086715
125,6.736,0.136723049193668
126,6.737,0.14292547548845
127,6.738,0.144712043932055
128,6.739,0.099727598875608
129,6.740,0.114593196679949
130,6.741,0.132981368113664
131,6.743,0.116582018154906
132,6.744,0.122110267678516
133,6.745,0.122447356064102
134,6.746,0.106250259136696
135,6.747,0.0875587081559546
136,6.748,0.0845586215242395
137,6.750,0.0733841415420648
138,6.751,0.0560915073615047
139,6.752,0.0530240030526724
140,6.753,0.0592601381860128
141,6.754,0.0298828853821959
142,6.756,0.0400123913690541
143,6.757,0.0258041159166057
144,6.758,0.0320908143077839
145,6.759,0.0199893412652478
146,6.760,0.0129610484257804
147,6.761,0.0230399911548008
148,6.763,0.0135340986812765
149,6.764,0.0154386480598372
150,6.765,0.0136520796162316
151,6.766,0.00825866544685616
152,6.767,0.00328661175946317
153,6.768,0.0123374349124463
154,6.770,0.0116295493027158
155,6.771,0.0059159011670337
156,6.772,0.0133149912306457
157,6.773,0.00426416807766247
158,6.774,0.00975870876271371
159,6.776,0.00891598779874879
160,6.777,0.0103317590182099
161,6.778,0.00675862213099861
162,6.779,0
163,6.780,0.00315177640522878
164,6.781,0.00326975734018387
165,6.783,0.00446642110901405
166,6.784,0
167,6.785,0.00664064119604353
168,6.786,0
169,6.787,0
170,6.789,0.0118149479147881
171,6.790,0.00620242629478177
172,6.791,0.00926993060361406
173,6.792,0.0141577121946106
174,6.793,0.00675862213099861
175,6.794,0.00367426340288703
176,6.796,0.00738223564433265
177,6.797,0.00925307618433476
178,6.798,0.01729263418056
179,6.799,0.00541026858865475
180,6.800,0.0117475302376709
181,6.801,0.0138711870668625
182,6.803,0.010399176695327
183,6.804,0.00402820620775229
184,6.805,0.00862946267100072
185,6.806,0.00969129108559652
186,6.807,0.0079384314805495
187,6.809,0.0098766896976688
188,6.810,0.0103486134374892
189,6.811,0.00515745229946528
190,6.812,0.00835979196253195
191,6.813,0.0111070623050576
192,6.814,0.0147644712886653
193,6.816,0.0069440207430709
194,6.817,0.0191466203012829
195,6.818,0.00957331015064143
196,6.819,0.0128599219101046
197,6.820,0.0169892546335327
198,6.821,0.0253996098539025
199,6.823,0.0313997831173327
200,6.824,0.0223826688029081
201,6.825,0.024691724244172
202,6.826,0.0282648611313832
203,6.827,0.0239501297958829
204,6.829,0.0359167674841847
205,6.830,0.0263940205913811
206,6.831,0.0366246530939152
207,6.832,0.0531756928261861
208,6.833,0.038310095021845
209,6.834,0.0591758660896163
210,6.836,0.0456923306661777
211,6.837,0.0427090984537419
212,6.838,0.0538835784359166
213,6.839,0.0446136478323026
214,6.840,0.0444451036395096
215,6.842,0.0456923306661777
216,6.843,0.0347032492960752
217,6.844,0.0379392977977005
218,6.845,0.0307087519268815
219,6.846,0.0353100083901299
220,6.847,0.0277255197144457
221,6.849,0.0308435872811159
222,6.850,0.0175285960504702
223,6.851,0.0122194539774913
224,6.852,0.014124003356052
225,6.853,0.0157925908647025
226,6.854,0.00901711431442459
227,6.856,0.0142082754524485
228,6.857,0
229,6.858,0.0113093153364092
230,6.859,0.00712941935514318
231,6.860,0.00306750430883229
232,6.862,0.00549454068505124
233,6.863,0.00697772958162949
234,6.864,0.00996096179406529
235,6.865,0.00647209700325054
236,6.866,0.0101800692446962
237,6.867,0.00940476595784845
238,6.869,0.00377538991856282
239,6.870,0.00252816289189474
240,6.871,0.00318548524378738
241,6.872,0.00335402943658036
242,6.873,0.0110396446279404
243,6.874,0.00626984397189896
244,6.876,0.00758448867568423
245,6.877,0.00719683703226037
246,6.878,0.0029326689545979
247,6.879,0.00266299824612913
248,6.880,0.0114104418520849
249,6.882,0.00259558056901194
250,6.883,0.00704514725874669
251,6.884,0.00896655105658669
252,6.885,0.0069103119045123
253,6.886,0.00321919408234597
254,6.887,0.00278097918108422
255,6.889,0.00731481796721546
256,6.890,0.00906767757226248
257,6.891,0.00608444535982668
258,6.892,0.0107868283387509
259,6.893,0
260,6.895,0.0069440207430709
261,6.896,0.00996096179406529
262,6.897,0.0169892546335327
263,6.898,0.013618370777673
264,6.899,0.0151689773513685
265,6.900,0.0188600951735348
266,6.902,0.0144779461609172
267,6.903,0.0141745666138899
268,6.904,0.0135678075198351
269,6.905,0.0130621749414562
270,6.906,0.0268827987504808
271,6.907,0.0350403376816611
272,6.909,0.0170566723106499
273,6.910,0.0312312389245397
274,6.911,0.0157757364454232
275,6.912,0.0252479200803888
276,6.913,0.0382258229254485
277,6.915,0.0229894278969629
278,6.916,0.0313997831173327
279,6.917,0.0376359182506731
280,6.918,0.0349223567467061
281,6.919,0.0446305022515819
282,6.920,0.0297817588665201
283,6.922,0.0213208403883123
284,6.923,0.0314503463751706
285,6.924,0.0204275561665095
286,6.925,0.023225389766873
287,6.926,0.0237647311838106
288,6.927,0.0172757797612807
289,6.929,0.0316863082450808
290,6.930,0.0289390379025552
291,6.931,0.0226523395113769
292,6.932,0.0182364816602008
293,6.933,0.0126913777173116
294,6.935,0.0112587520785713
295,6.936,0.0150509964164134
296,6.937,0.0078878682227116
297,6.938,0.0158262997032611
298,6.939,0.00729796354793616
299,6.940,0.0124217070088428
300,6.942,0.00974185434343441
301,6.943,0.0146633447729895
302,6.944,0.0147981801272239
303,6.945,0.005932755586313
304,6.946,0.00761819751424283
305,6.948,0.0108879548544267
306,6.949,0.0108373915965888
307,6.950,0.00672491329244002
308,6.951,0.0163824955394779
309,6.952,0.0176802858239839
310,6.953,0.016500476474433
311,6.955,0.00991039853622739
312,6.956,0.00943847479640704
313,6.957,0.0153375215441614
314,6.958,0.00861260825172143
315,6.959,0.0143094019681242
316,6.960,0.00896655105658669
317,6.962,0.00431473133550036
318,6.963,0.00969129108559652
319,6.964,0.00953960131208283
320,6.965,0.011359878594247
321,6.966,0.00716312819370177
322,6.968,0.00274727034252562
323,6.969,0.00318548524378738
324,6.970,0.0029158145353186
325,6.971,0
326,6.972,0
327,6.973,0
328,6.975,0.00357313688721124
329,6.976,0
330,6.977,0
331,6.978,0.00615186303694388
332,6.979,0
333,6.980,0
334,6.982,0
335,6.983,0.00254501731117404
336,6.984,0
337,6.985,0.00417989598126598
338,6.986,0.00900025989514529
339,6.988,0
340,6.989,0
341,6.990,0.00726425470937756
342,6.991,0.00586533790919581
343,6.992,0.00269670708468773
344,6.993,0
345,6.995,0
346,6.996,0.00306750430883229
347,6.997,0
348,6.998,0.00352257362937334
349,6.999,0
350,7.001,0.00559566720072703
351,7.002,0.0059496100055923
352,7.003,0.00551139510433054
353,7.004,0.00315177640522878
354,7.005,0
355,7.006,0.00254501731117404
356,7.008,0.00301694105099439
357,7.009,0
358,7.010,0
359,7.011,0
360,7.012,0.00306750430883229
361,7.013,0
362,7.015,0
363,7.016,0
364,7.017,0
365,7.018,0.00562937603928563
366,7.019,0
367,7.021,0
368,7.022,0.00313492198594948
369,7.023,0.00254501731117404
370,7.024,0
371,7.025,0
372,7.026,0.00385966201495931
373,7.028,0.0029495233738772
374,7.029,0.00583162907063721
375,7.030,0.00498890810667229
376,7.031,0
377,7.032,0.00338773827513896
378,7.033,0.00524172439586177
379,7.035,0
380,7.036,0
381,7.037,0.00953960131208283
382,7.038,0.00465181972108633
383,7.039,0.00271356150396702
384,7.041,0.00825866544685616
385,7.042,0.00741594448289125
386,7.043,0.0118823655919053
387,7.044,0.00847777289748704
388,7.045,0.00283154243892211
389,7.046,0.00500576252595159
390,7.048,0.00731481796721546
391,7.049,0.00303379547027369
392,7.050,0.00918565850721757
393,7.051,0.00384280759568001
394,7.052,0.00306750430883229
395,7.054,0.0039607885306351
396,7.055,0.00377538991856282
397,7.056,0.0168038560214604
398,7.057,0.00431473133550036
399,7.058,0.00385966201495931
400,7.059,0.00603388210198879
401,7.061,0.00514059788018598
402,7.062,0.00645524258397125
403,7.063,0.00269670708468773
404,7.064,0.00682603980811581
405,7.065,0.00699458400090879
406,7.066,0.00916880408793827
407,7.068,0.0029832322124358
408,7.069,0.00330346617874247
409,7.070,0.00937105711928985
410,7.071,0.00261243498829124
411,7.072,0.0105845753073993
412,7.074,0.00284839685820141
413,7.075,0.0135678075198351
414,7.076,0.00778674170703581
415,7.077,0.00959016456992073
416,7.078,0.00652266026108844
417,7.079,0.00583162907063721
418,7.081,0.0069440207430709
419,7.082,0.00896655105658669
420,7.083,0.00932049386145195
421,7.084,0.00674176771171932
422,7.085,0.0030000866317151
423,7.086,0
424,7.088,0.00274727034252562
425,7.089,0
426,7.090,0.00310121314739089
427,7.091,0
428,7.092,0.00524172439586177
429,7.094,0
430,7.095,0
431,7.096,0.00318548524378738
432,7.097,0
433,7.098,0
434,7.099,0
435,7.101,0
436,7.102,0
437,7.103,0
438,7.104,0
439,7.105,0.00261243498829124
440,7.107,0
441,7.108,0
442,7.109,0
443,7.110,0
444,7.111,0
445,7.112,0
446,7.114,0
447,7.115,0
448,7.116,0
449,7.117,0
450,7.118,0
451,7.119,0
452,7.121,0
453,7.122,0
454,7.123,0
455,7.124,0.00254501731117404
456,7.125,0.00274727034252562
457,7.127,0
458,7.128,0
459,7.129,0.00332032059802176
460,7.130,0
461,7.131,0
462,7.132,0
463,7.134,0
464,7.135,0
465,7.136,0
466,7.137,0.00284839685820141
467,7.138,0.00407876946559019
468,7.139,0
469,7.141,0
470,7.142,0
471,7.143,0.00571364813568212
472,7.144,0
473,7.145,0
474,7.147,0.00261243498829124
475,7.148,0.00830922870469406
476,7.149,0.006893457485233
477,7.150,0.00817439335045967
478,7.151,0.00645524258397125
479,7.152,0.0100452338904618
480,7.154,0.00776988728775651
481,7.155,0.0088822789601902
482,7.156,0.00411247830414878
483,7.157,0.0029326689545979
484,7.158,0.0166353118286674
485,7.160,0.021186005034078
486,7.161,0.00632040722973686
487,7.162,0.0134666810041593
488,7.163,0.00385966201495931
489,7.164,0.00829237428541476
490,7.165,0.0123711437510049
491,7.167,0.0167701471829018
492,7.168,0.007854159384153
493,7.169,0.0155566289947923
494,7.170,0.00932049386145195
495,7.171,0.0160285527346127
496,7.172,0.00734852680577405
497,7.174,0.00734852680577405
498,7.175,0.00711256493586388
499,7.176,0.00921936734577617
500,7.177,0.00755077983712563
501,7.178,0.0109216636929853
502,7.180,0
503,7.181,0.00281468801964281
504,7.182,0.00338773827513896
505,7.183,0
506,7.184,0.00259558056901194
507,7.185,0.00583162907063721
508,7.187,0.00569679371640282
509,7.188,0
510,7.189,0.00283154243892211
511,7.190,0.00537655975009615
512,7.191,0.0029158145353186
513,7.192,0
514,7.194,0.00278097918108422
515,7.195,0.00569679371640282
516,7.196,0.00320233966306668
517,7.197,0
518,7.198,0
519,7.200,0
520,7.201,0.00571364813568212
521,7.202,0
522,7.203,0
523,7.204,0
524,7.205,0
525,7.207,0
526,7.208,0
527,7.209,0.0029663777931565
528,7.210,0.00701143842018809
529,7.211,0.00348886479081475
530,7.213,0.00320233966306668
531,7.214,0.00873058918667651
532,7.215,0.00736538122505335
533,7.216,0.00380909875712141
534,7.217,0.00463496530180703
535,7.218,0.00372482666072492
536,7.220,0.00680918538883651
537,7.221,0.00514059788018598
538,7.222,0.00288210569676001
539,7.223,0.00369111782216633
540,7.224,0.0127756498137081
541,7.225,0.00316863082450808
542,7.227,0.00844406405892844
543,7.228,0
544,7.229,0.00389337085351791
545,7.230,0.00473609181748282
546,7.231,0.00348886479081475
547,7.233,0.00364055456432843
548,7.234,0.00335402943658036
549,7.235,0
550,7.236,0.00269670708468773
551,7.237,0.00544397742721335
552,7.238,0.00257872614973264
553,7.240,0
554,7.241,0
555,7.242,0.00269670708468773
556,7.243,0
557,7.244,0
558,7.245,0
559,7.247,0
560,7.248,0
561,7.249,0
562,7.250,0
563,7.251,0
564,7.253,0
565,7.254,0
566,7.255,0
567,7.256,0
568,7.257,0
569,7.258,0.00259558056901194
570,7.260,0
571,7.261,0
572,7.262,0
573,7.263,0
574,7.264,0.00335402943658036
575,7.266,0
576,7.267,0.0058821923284751
577,7.268,0
578,7.269,0
579,7.270,0
580,7.271,0.00567993929712352
581,7.273,0
582,7.274,0.00348886479081475
583,7.275,0
584,7.276,0
585,7.277,0.00308435872811159
586,7.278,0.00274727034252562
587,7.280,0.00541026858865475
588,7.281,0.00358999130649054
589,7.282,0.00423045923910387
590,7.283,0
591,7.284,0
592,7.286,0
593,7.287,0
594,7.288,0
595,7.289,0
596,7.290,0
597,7.291,0.00321919408234597
598,7.293,0.00625298955261967
599,7.294,0.00847777289748704
600,7.295,0.0029663777931565
601,7.296,0.00252816289189474
602,7.297,0.00330346617874247
603,7.298,0.00608444535982668
604,7.300,0
605,7.301,0
606,7.302,0.0039944973691937
607,7.303,0
608,7.304,0
609,7.306,0
610,7.307,0.00279783360036352
611,7.308,0
612,7.309,0.0029158145353186
613,7.310,0
614,7.311,0.00530914207297896
615,7.313,0
616,7.314,0
617,7.315,0
618,7.316,0
619,7.317,0
620,7.319,0.00340459269441825
621,7.320,0
622,7.321,0
623,7.322,0
624,7.323,0.00278097918108422
625,7.324,0
626,7.326,0
627,7.327,0.00281468801964281
628,7.328,0
629,7.329,0
630,7.330,0
631,7.331,0
632,7.333,0
633,7.334,0
634,7.335,0
635,7.336,0
636,7.337,0
637,7.339,0
638,7.340,0
639,7.341,0
640,7.342,0.0029326689545979
641,7.343,0
642,7.344,0
643,7.346,0
644,7.347,0.00301694105099439
645,7.348,0
646,7.349,0
647,7.350,0.00473609181748282
648,7.351,0.00279783360036352
649,7.353,0
650,7.354,0
651,7.355,0
652,7.356,0
653,7.357,0
654,7.359,0
655,7.360,0
656,7.361,0
657,7.362,0
658,7.363,0.00257872614973264
659,7.364,0
660,7.366,0
661,7.367,0
662,7.368,0
663,7.369,0
664,7.370,0
665,7.372,0
666,7.373,0
667,7.374,0
668,7.375,0
669,7.376,0
670,7.377,0
671,7.379,0
672,7.380,0
673,7.381,0
674,7.382,0
675,7.383,0
676,7.384,0
677,7.386,0
678,7.387,0
679,7.388,0
680,7.389,0
681,7.390,0
682,7.392,0
683,7.393,0
684,7.394,0
685,7.395,0
686,7.396,0
687,7.397,0
688,7.399,0
689,7.400,0
690,7.401,0
691,7.402,0
692,7.403,0
693,7.404,0
694,7.406,0
695,7.407,0
696,7.408,0
697,7.409,0
698,7.410,0
699,7.412,0
700,7.413,0
701,7.414,0
702,7.415,0
703,7.416,0
704,7.417,0
705,7.419,0
706,7.420,0
707,7.421,0
708,7.422,0.00301694105099439
709,7.423,0
710,7.425,0
711,7.426,0
712,7.427,0
713,7.428,0
714,7.429,0.00262928940757053
715,7.430,0
716,7.432,0.00524172439586177
717,7.433,0
718,7.434,0
719,7.435,0
720,7.436,0
721,7.437,0.00267985266540843
722,7.439,0.00257872614973264
723,7.440,0.00305064988955299
724,7.441,0
725,7.442,0
726,7.443,0
727,7.445,0
728,7.446,0
729,7.447,0.00278097918108422
730,7.448,0
731,7.449,0
732,7.450,0
733,7.452,0
734,7.453,0.00259558056901194
735,7.454,0
736,7.455,0.00306750430883229
737,7.456,0
738,7.457,0
739,7.459,0.00306750430883229
740,7.460,0
741,7.461,0
742,7.462,0
743,7.463,0
744,7.465,0
745,7.466,0
746,7.467,0
747,7.468,0
748,7.469,0
749,7.470,0
750,7.472,0
751,7.473,0
752,7.474,0
753,7.475,0
754,7.476,0
755,7.478,0
756,7.479,0
757,7.480,0
758,7.481,0
759,7.482,0
760,7.483,0
761,7.485,0
762,7.486,0
763,7.487,0.00288210569676001
764,7.488,0
765,7.489,0
766,7.490,0.00256187173045334
767,7.492,0
768,7.493,0
769,7.494,0
770,7.495,0
771,7.496,0
772,7.498,0
773,7.499,0.00274727034252562
774,7.500,0.00257872614973264
775,7.501,0.00288210569676001
776,7.502,0
777,7.503,0
778,7.505,0
779,7.506,0
780,7.507,0
781,7.508,0.00256187173045334
782,7.509,0
783,7.510,0
784,7.512,0
785,7.513,0
786,7.514,0
787,7.515,0
788,7.516,0.00642153374541265
789,7.518,0
790,7.519,0
791,7.520,0
792,7.521,0
793,7.522,0
794,7.523,0
795,7.525,0
796,7.526,0
797,7.527,0
798,7.528,0
799,7.529,0
800,7.531,0
801,7.532,0.00266299824612913
802,7.533,0
803,7.534,0
804,7.535,0
805,7.536,0
806,7.538,0
807,7.539,0
808,7.540,0
809,7.541,0
810,7.542,0
811,7.543,0
812,7.545,0
813,7.546,0
814,7.547,0.00256187173045334
815,7.548,0
816,7.549,0
817,7.551,0
818,7.552,0
819,7.553,0
820,7.554,0
821,7.555,0
822,7.556,0
823,7.558,0
824,7.559,0
825,7.560,0
826,7.561,0.00266299824612913
827,7.562,0
828,7.563,0
829,7.565,0
830,7.566,0.00279783360036352
831,7.567,0
832,7.568,0
833,7.569,0
834,7.571,0.00598331884415089
835,7.572,0
836,7.573,0
837,7.574,0.00417989598126598
838,7.575,0.00584848348991651
839,7.576,0.00655636909964703
840,7.578,0.0109216636929853
841,7.579,0.0129610484257804
842,7.580,0.0134835354234386
843,7.581,0.0261917675600295
844,7.582,0.0218433273859706
845,7.584,0.0249782493719201
846,7.585,0.0247254330827306
